// Data mode  : Quaternion
// Transmission speed  : 50Hz
// Accelerometer sensor's range  : 2g
// Gyroscope sensor's range  : 2000dps
//
//ARTIFACT,NUM,DATE,QUATERNION_W,QUATERNION_X,QUATERNION_Y,QUATERNION_Z
,1,2018/03/15 00:39:13.09,-513527193,81648766,89875876,-935129475
,2,2018/03/15 00:39:13.11,-513295516,81609097,89893534,-935258429
,3,2018/03/15 00:39:13.13,-513019207,81536431,89845718,-935420952
,4,2018/03/15 00:39:13.15,-512611044,81396411,89735398,-935667466
,5,2018/03/15 00:39:13.17,-512054364,81201300,89567908,-936005221
,6,2018/03/15 00:39:13.19,-511407807,81004724,89417487,-936390041
,7,2018/03/15 00:39:13.21,-510740732,80830629,89317041,-936778676
,8,2018/03/15 00:39:13.23,-510107029,80625866,89223816,-937150418
,9,2018/03/15 00:39:13.25,-509545920,80428767,89120190,-937482409
,10,2018/03/15 00:39:13.27,-509033208,80282499,88998001,-937785038
,11,2018/03/15 00:39:13.29,-508553734,80208352,88910399,-938059790
,12,2018/03/15 00:39:13.31,-508088333,80153390,88855677,-938321830
,13,2018/03/15 00:39:13.33,-507629551,80097969,88892297,-938571373
,14,2018/03/15 00:39:13.35,-507160868,80033276,89002531,-938819783
,15,2018/03/15 00:39:13.37,-506684819,79988969,89188702,-939062906
,16,2018/03/15 00:39:13.39,-506210394,79955942,89353437,-939305890
,17,2018/03/15 00:39:13.41,-505712957,79915212,89460892,-939567039
,18,2018/03/15 00:39:13.43,-505213493,79866302,89514779,-939834726
,19,2018/03/15 00:39:13.45,-504702083,79854564,89557127,-940106422
,20,2018/03/15 00:39:13.47,-504214732,79848169,89597333,-940364610
,21,2018/03/15 00:39:13.49,-503733257,79825278,89661035,-940618487
,22,2018/03/15 00:39:13.51,-503290671,79775180,89735364,-940852535
,23,2018/03/15 00:39:13.53,-502855514,79719328,89815727,-941082251
,24,2018/03/15 00:39:13.55,-502431795,79636620,89883502,-941309069
,25,2018/03/15 00:39:13.57,-501984035,79530077,89946322,-941550935
,26,2018/03/15 00:39:13.59,-501519187,79384455,89996495,-941806112
,27,2018/03/15 00:39:13.61,-501020367,79205254,90032897,-942083173
,28,2018/03/15 00:39:13.63,-500482146,79022833,90056579,-942382265
,29,2018/03/15 00:39:13.65,-499917529,78790798,90090628,-942698074
,30,2018/03/15 00:39:13.67,-499332714,78586364,90092211,-943024880
,31,2018/03/15 00:39:13.69,-498768407,78457575,90108922,-943332589
,32,2018/03/15 00:39:13.71,-498254650,78408174,90128460,-943606289
,33,2018/03/15 00:39:13.73,-497792889,78358969,90062142,-943860387
,34,2018/03/15 00:39:13.75,-497345065,78197050,89886568,-944126591
,35,2018/03/15 00:39:13.77,-496906892,78157212,89694635,-944378828
,36,2018/03/15 00:39:13.79,-496521095,78276018,89582494,-944582527
,37,2018/03/15 00:39:13.81,-496224923,78470340,89692644,-944711579
,38,2018/03/15 00:39:13.83,-496014212,78581323,89960125,-944787574
,39,2018/03/15 00:39:13.85,-496003824,78628183,90352374,-944751698
,40,2018/03/15 00:39:13.87,-496515123,78585285,90990015,-944425439
,41,2018/03/15 00:39:13.89,-497589286,78403061,91670735,-943809221
,42,2018/03/15 00:39:13.91,-499088111,78118589,92375962,-942972287
,43,2018/03/15 00:39:13.93,-500806122,77822764,93082152,-942015958
,44,2018/03/15 00:39:13.95,-502592936,77583259,93825645,-941009794
,45,2018/03/15 00:39:13.97,-504343818,77308218,94532582,-940024388
,46,2018/03/15 00:39:13.99,-506013854,77012756,95092332,-939094229
,47,2018/03/15 00:39:14.01,-507513043,76780762,95385647,-938274113
,48,2018/03/15 00:39:14.03,-508777158,76709391,95429600,-937590620
,49,2018/03/15 00:39:14.05,-509693543,76724310,95260541,-937108750
,50,2018/03/15 00:39:14.07,-510169871,76804867,94982488,-936871149
,51,2018/03/15 00:39:14.09,-510193860,76933134,94698975,-936876261
,52,2018/03/15 00:39:14.11,-509821496,77090817,94473905,-937088702
,53,2018/03/15 00:39:14.13,-509161085,77249083,94296477,-937452532
,54,2018/03/15 00:39:14.15,-508357009,77342728,94137650,-937897043
,55,2018/03/15 00:39:14.17,-507545801,77328807,94023286,-938348893
,56,2018/03/15 00:39:14.19,-506822417,77232129,93960578,-938754043
,57,2018/03/15 00:39:14.21,-506222426,77063447,93954418,-939092196
,58,2018/03/15 00:39:14.23,-505701846,76885731,94057357,-939376894
,59,2018/03/15 00:39:14.25,-505209464,76712630,94212244,-939640425
,60,2018/03/15 00:39:14.27,-504688569,76538490,94394941,-939916172
,61,2018/03/15 00:39:14.29,-504102334,76334512,94576716,-940229031
,62,2018/03/15 00:39:14.31,-503423682,76149335,94673954,-940597801
,63,2018/03/15 00:39:14.33,-502703045,75920447,94726079,-940996392
,64,2018/03/15 00:39:14.35,-501955950,75695952,94787522,-941407021
,65,2018/03/15 00:39:14.37,-501242341,75492910,94813120,-941800890
,66,2018/03/15 00:39:14.39,-500600381,75313835,94765901,-942161354
,67,2018/03/15 00:39:14.41,-499752586,75084465,94613077,-942644975
,68,2018/03/15 00:39:14.43,-499224956,75000536,94482565,-942944280
,69,2018/03/15 00:39:14.45,-498697051,74882013,94321114,-943249156
,70,2018/03/15 00:39:14.47,-498112426,74703946,94123757,-943591838
,71,2018/03/15 00:39:14.49,-497492432,74561638,93980220,-943944420
,72,2018/03/15 00:39:14.51,-496904394,74642054,93936043,-944252145
,73,2018/03/15 00:39:14.53,-496402899,74976466,94054891,-944477568
,74,2018/03/15 00:39:14.55,-495992834,75317397,94318061,-944639618
,75,2018/03/15 00:39:14.57,-495666616,75615820,94691196,-944749669
,76,2018/03/15 00:39:14.59,-495416019,75846504,95046404,-944826949
,77,2018/03/15 00:39:14.61,-495185708,76060911,95251314,-944909809
,78,2018/03/15 00:39:14.63,-494901885,76139388,95274154,-945049872
,79,2018/03/15 00:39:14.65,-494499994,76145803,95157632,-945271445
,80,2018/03/15 00:39:14.67,-493991981,76144083,95000494,-945552968
,81,2018/03/15 00:39:14.69,-493418712,76144505,94834940,-945868823
,82,2018/03/15 00:39:14.71,-492823447,76105620,94736430,-946192105
,83,2018/03/15 00:39:14.73,-492258604,75983680,94685066,-946501026
,84,2018/03/15 00:39:14.75,-491733283,75844078,94694046,-946784347
,85,2018/03/15 00:39:14.77,-491228077,75739357,94789120,-947045435
,86,2018/03/15 00:39:14.79,-490715929,75612322,95005627,-947299367
,87,2018/03/15 00:39:14.81,-490174382,75437683,95331578,-947560884
,88,2018/03/15 00:39:14.83,-489630017,75281898,95726938,-947814825
,89,2018/03/15 00:39:14.85,-489134276,75159065,96185872,-948034050
,90,2018/03/15 00:39:14.87,-488734994,75075833,96634157,-948200966
,91,2018/03/15 00:39:14.89,-488420706,75059384,96980753,-948328816
,92,2018/03/15 00:39:14.91,-488202829,75055496,97183308,-948420572
,93,2018/03/15 00:39:14.93,-488083166,75042332,97264602,-948474869
,94,2018/03/15 00:39:14.95,-488038149,75000440,97263944,-948501414
,95,2018/03/15 00:39:14.97,-488008640,74937239,97212668,-948526848
,96,2018/03/15 00:39:14.99,-487995342,74798876,97136234,-948552441
,97,2018/03/15 00:39:15.01,-487991945,74590559,97028329,-948581636
,98,2018/03/15 00:39:15.03,-487999022,74345884,96916854,-948608599
,99,2018/03/15 00:39:15.05,-487992751,74134847,96857499,-948634404
,100,2018/03/15 00:39:15.07,-487980679,73908682,96887844,-948655162
,101,2018/03/15 00:39:15.09,-487948837,73693925,97004568,-948676319
,102,2018/03/15 00:39:15.11,-487852058,73477067,97235300,-948719291
,103,2018/03/15 00:39:15.13,-487633140,73287251,97512635,-948818050
,104,2018/03/15 00:39:15.15,-487282242,73104334,97840647,-948978655
,105,2018/03/15 00:39:15.17,-486811114,72947504,98211858,-949194152
,106,2018/03/15 00:39:15.19,-486258758,72803028,98552755,-949453000
,107,2018/03/15 00:39:15.21,-485666952,72559303,98849171,-949743706
,108,2018/03/15 00:39:15.23,-485143511,72365607,99051836,-950004860
,109,2018/03/15 00:39:15.25,-484795618,72324278,99230171,-950166979
,110,2018/03/15 00:39:15.27,-484682365,72388250,99410934,-950200989
,111,2018/03/15 00:39:15.29,-484931878,72386174,99599573,-950054076
,112,2018/03/15 00:39:15.31,-485886436,72197288,99790500,-949560576
,113,2018/03/15 00:39:15.33,-488312228,71657675,99997907,-948334473
,114,2018/03/15 00:39:15.35,-493656308,70335904,100304416,-945630394
,115,2018/03/15 00:39:15.37,-503737135,67520950,100548890,-940479265
,116,2018/03/15 00:39:15.39,-520107639,63003898,100773217,-931818018
,117,2018/03/15 00:39:15.41,-542476679,57022033,100364056,-919410736
,118,2018/03/15 00:39:15.43,-568858714,50229246,99237445,-903852986
,119,2018/03/15 00:39:15.45,-596701775,43531771,97541948,-886261276
,120,2018/03/15 00:39:15.47,-623077433,37313092,95181932,-868472309
,121,2018/03/15 00:39:15.49,-645740057,32139138,92683821,-852242964
,122,2018/03/15 00:39:15.51,-663296619,28044602,90132348,-839076136
,123,2018/03/15 00:39:15.53,-674952419,25031113,87598965,-830096744
,124,2018/03/15 00:39:15.55,-680693083,23698560,85431142,-825662359
,125,2018/03/15 00:39:15.57,-680832699,24209927,83685254,-825711209
,126,2018/03/15 00:39:15.59,-675881536,26306094,82637472,-829810035
,127,2018/03/15 00:39:15.61,-666660976,30012601,82337939,-837140585
,128,2018/03/15 00:39:15.63,-653935519,34897110,82316341,-846933324
,129,2018/03/15 00:39:15.65,-638314212,40419795,82354197,-858522277
,130,2018/03/15 00:39:15.67,-620327403,46120689,82448368,-871315424
,131,2018/03/15 00:39:15.69,-600582295,51929269,82630342,-884702205
,132,2018/03/15 00:39:15.71,-579740993,57685068,82871819,-898123924
,133,2018/03/15 00:39:15.73,-558376480,63011862,83104889,-911186202
,134,2018/03/15 00:39:15.75,-536891484,67710507,83260422,-923662292
,135,2018/03/15 00:39:15.77,-515529608,71569334,83290630,-935463110
,136,2018/03/15 00:39:15.79,-494888593,74737752,83549249,-946277221
,137,2018/03/15 00:39:15.81,-475809679,77438472,84170313,-955743322
,138,2018/03/15 00:39:15.83,-458958536,79388158,85229449,-963697063
,139,2018/03/15 00:39:15.85,-444739647,80555670,86740638,-970110818
,140,2018/03/15 00:39:15.87,-433320835,80968004,88671344,-975056992
,141,2018/03/15 00:39:15.89,-424763329,80819536,90852096,-978627468
,142,2018/03/15 00:39:15.91,-418949038,80390058,93058337,-980959120
,143,2018/03/15 00:39:15.93,-415617773,79735161,95022869,-982240466
,144,2018/03/15 00:39:15.95,-414381268,78756633,96573061,-982690546
,145,2018/03/15 00:39:15.97,-414781326,77701949,97665119,-982497782
,146,2018/03/15 00:39:15.99,-416293329,76780956,98234462,-981873742
,147,2018/03/15 00:39:16.01,-418339727,76020451,98364124,-981049830
,148,2018/03/15 00:39:16.03,-420442018,75390502,98189978,-980216821
,149,2018/03/15 00:39:16.05,-422227117,74750137,97769548,-979540353
,150,2018/03/15 00:39:16.07,-423469534,74088407,97201015,-979110786
,151,2018/03/15 00:39:16.09,-424101519,73454643,96574980,-978946933
,152,2018/03/15 00:39:16.11,-423992737,72471188,95705963,-979152675
,153,2018/03/15 00:39:16.13,-423404680,71725432,95242629,-979507166
,154,2018/03/15 00:39:16.15,-422604200,70909330,94981899,-979937499
,155,2018/03/15 00:39:16.17,-421761904,69987981,94997063,-980365056
,156,2018/03/15 00:39:16.19,-420984177,68955091,95333216,-980739825
,157,2018/03/15 00:39:16.21,-420410928,67855317,95764191,-981020405
,158,2018/03/15 00:39:16.23,-420012026,66786165,96071990,-981234522
,159,2018/03/15 00:39:16.25,-419667730,65782321,96150866,-981441899
,160,2018/03/15 00:39:16.27,-419219432,64898452,96087927,-981698465
,161,2018/03/15 00:39:16.29,-418614433,64155576,96017333,-982012320
,162,2018/03/15 00:39:16.31,-417877858,63534363,95980157,-982369990
,163,2018/03/15 00:39:16.33,-417080019,63055494,95995047,-982738378
,164,2018/03/15 00:39:16.35,-416300076,62719811,96036489,-983086452
,165,2018/03/15 00:39:16.37,-415617341,62482685,95991042,-983394817
,166,2018/03/15 00:39:16.39,-415067242,62342912,95873261,-983647483
,167,2018/03/15 00:39:16.41,-414637829,62309723,95737065,-983843936
,168,2018/03/15 00:39:16.43,-414303838,62393959,95599240,-983992691
,169,2018/03/15 00:39:16.45,-414056362,62532629,95443566,-984103161
,170,2018/03/15 00:39:16.47,-413832623,62716788,95231959,-984206049
,171,2018/03/15 00:39:16.49,-413626371,62901146,94969270,-984306363
,172,2018/03/15 00:39:16.51,-413412679,63092100,94651259,-984414542
,173,2018/03/15 00:39:16.53,-413191387,63286451,94321518,-984526617
,174,2018/03/15 00:39:16.55,-412942055,63446467,93970694,-984654468
,175,2018/03/15 00:39:16.57,-412676223,63564651,93633099,-984790444
,176,2018/03/15 00:39:16.59,-412366404,63589716,93332821,-984947099
,177,2018/03/15 00:39:16.61,-411995744,63489708,93107548,-985129969
,178,2018/03/15 00:39:16.63,-411519096,63299059,92925797,-985358598
,179,2018/03/15 00:39:16.65,-410914494,62998593,92806978,-985641328
,180,2018/03/15 00:39:16.67,-410155082,62540269,92700981,-985996733
,181,2018/03/15 00:39:16.69,-409263452,62003191,92499853,-986419949
,182,2018/03/15 00:39:16.71,-408334931,61617653,92325405,-986845163
,183,2018/03/15 00:39:16.73,-407437551,61385098,92219104,-987240424
,184,2018/03/15 00:39:16.75,-406624670,61111990,92270910,-987587611
,185,2018/03/15 00:39:16.77,-405869712,60679301,92386182,-987914014
,186,2018/03/15 00:39:16.79,-405164526,60174533,92473600,-988226124
,187,2018/03/15 00:39:16.81,-404475014,59635910,92494844,-988539191
,188,2018/03/15 00:39:16.83,-403766663,59095080,92432907,-988866987
,189,2018/03/15 00:39:16.85,-402994732,58574352,92330029,-989222403
,190,2018/03/15 00:39:16.87,-402177845,58095226,92206962,-989594518
,191,2018/03/15 00:39:16.89,-401359847,57669645,92057590,-989965349
,192,2018/03/15 00:39:16.91,-400548944,57205906,91869444,-990338094
,193,2018/03/15 00:39:16.93,-399794106,56741922,91620289,-990692817
,194,2018/03/15 00:39:16.95,-399086435,56335889,91318398,-991029132
,195,2018/03/15 00:39:16.97,-398406986,56030437,91007136,-991348411
,196,2018/03/15 00:39:16.99,-397731388,55732234,90715270,-991663202
,197,2018/03/15 00:39:17.01,-397012604,55417796,90521418,-991986511
,198,2018/03/15 00:39:17.03,-396243272,55039209,90414553,-992324882
,199,2018/03/15 00:39:17.05,-395421522,54620447,90439121,-992673511
,200,2018/03/15 00:39:17.07,-394548430,54166657,90497356,-993040405
,201,2018/03/15 00:39:17.09,-393637153,53670274,90483869,-993430153
,202,2018/03/15 00:39:17.11,-392687653,53170735,90431781,-993837452
,203,2018/03/15 00:39:17.13,-391684949,52627875,90361956,-994268290
,204,2018/03/15 00:39:17.15,-390653218,52056881,90319362,-994708030
,205,2018/03/15 00:39:17.17,-389591518,51458171,90318527,-995155554
,206,2018/03/15 00:39:17.19,-388537303,50829467,90372265,-995595043
,207,2018/03/15 00:39:17.21,-387508010,50219470,90407342,-996023879
,208,2018/03/15 00:39:17.23,-386538992,49664310,90451972,-996424112
,209,2018/03/15 00:39:17.25,-385661447,49179051,90471190,-996786407
,210,2018/03/15 00:39:17.27,-384901812,48728432,90471673,-997102060
,211,2018/03/15 00:39:17.29,-384256606,48298287,90491862,-997369975
,212,2018/03/15 00:39:17.31,-383720728,47844857,90599554,-997588342
,213,2018/03/15 00:39:17.33,-383249378,47351644,90809971,-997773918
,214,2018/03/15 00:39:17.35,-382770152,46878607,91065067,-997956947
,215,2018/03/15 00:39:17.37,-382240360,46486771,91394560,-998148200
,216,2018/03/15 00:39:17.39,-381643438,46085045,91728592,-998364576
,217,2018/03/15 00:39:17.41,-380992012,45610568,91969740,-998612957
,218,2018/03/15 00:39:17.43,-380344329,45324937,92166733,-998854665
,219,2018/03/15 00:39:17.45,-379812740,45263902,92370742,-999040847
,220,2018/03/15 00:39:17.47,-379431288,45275865,92653702,-999159043
,221,2018/03/15 00:39:17.49,-379165977,45277283,92950481,-999232127
,222,2018/03/15 00:39:17.51,-378949996,45177951,93245926,-999291028
,223,2018/03/15 00:39:17.53,-378614167,45025332,93626071,-999389663
,224,2018/03/15 00:39:17.55,-377999459,44741162,94089651,-999591558
,225,2018/03/15 00:39:17.57,-377362304,44525033,94387718,-999813823
,226,2018/03/15 00:39:17.59,-376743000,44447637,94524987,-1000037826
,227,2018/03/15 00:39:17.61,-376281411,44580831,94436423,-1000214036
,228,2018/03/15 00:39:17.63,-375909018,44845076,94272973,-1000357657
,229,2018/03/15 00:39:17.65,-375565923,45099009,94013184,-1000499548
,230,2018/03/15 00:39:17.67,-375280161,45352088,93713931,-1000623403
,231,2018/03/15 00:39:17.69,-375067676,45731970,93403530,-1000714801
,232,2018/03/15 00:39:17.71,-374916218,46170377,93134775,-1000776472
,233,2018/03/15 00:39:17.73,-374786802,46636521,92912751,-1000823968
,234,2018/03/15 00:39:17.75,-374655955,47112915,92801398,-1000860977
,235,2018/03/15 00:39:17.77,-374492323,47596850,92768150,-1000902402
,236,2018/03/15 00:39:17.79,-374303948,48086552,92777466,-1000948594
,237,2018/03/15 00:39:17.81,-373968826,48732845,92791526,-1001041291
,238,2018/03/15 00:39:17.83,-373684453,49104560,92753187,-1001132871
,239,2018/03/15 00:39:17.85,-373378239,49430940,92692530,-1001236673
,240,2018/03/15 00:39:17.87,-373051227,49705876,92627423,-1001350975
,241,2018/03/15 00:39:17.89,-372695412,49891806,92573579,-1001479194
,242,2018/03/15 00:39:17.91,-372304239,50050086,92513351,-1001622349
,243,2018/03/15 00:39:17.93,-371875895,50131671,92454849,-1001782782
,244,2018/03/15 00:39:17.95,-371402561,50165062,92390530,-1001962624
,245,2018/03/15 00:39:17.97,-370896751,50144243,92324486,-1002157099
,246,2018/03/15 00:39:17.99,-370353306,50086674,92238276,-1002368875
,247,2018/03/15 00:39:18.01,-369763820,49987611,92162983,-1002598348
,248,2018/03/15 00:39:18.03,-369160459,49842888,92097944,-1002833843
,249,2018/03/15 00:39:18.05,-368534162,49663018,92007295,-1003081413
,250,2018/03/15 00:39:18.07,-367927887,49521207,91943423,-1003316816
,251,2018/03/15 00:39:18.09,-367329212,49396305,91934266,-1003543149
,252,2018/03/15 00:39:18.11,-366740747,49300787,92005585,-1003756512
,253,2018/03/15 00:39:18.13,-366155074,49110739,92091891,-1003971706
,254,2018/03/15 00:39:18.15,-365554499,48869819,92161470,-1004195906
,255,2018/03/15 00:39:18.17,-364966450,48765351,92268434,-1004405034
,256,2018/03/15 00:39:18.19,-364409970,48771335,92461978,-1004588981
